# x0_trunc = 0.9049997324799766
# sigma_trunc = 0.17440697132173122
# lower_bound = 0.0001
# n  P_GAUSS(n)
0.0001 3.264126620672567e-06
0.0020919919919919917 3.463178570291178e-06
0.004083983983983984 3.673889749757509e-06
0.006075975975975975 3.896912901265792e-06
0.008067967967967967 4.132935472575782e-06
0.010059959959959959 4.382681354259374e-06
0.01205195195195195 4.646912697799835e-06
0.014043943943943942 4.926431817975118e-06
0.016035935935935934 5.222083183084083e-06
0.018027927927927925 5.5347554967080605e-06
0.02001991991991992 5.865383874834858e-06
0.02201191191191191 6.21495212231423e-06
0.0240039039039039 6.584495112756736e-06
0.025995895895895894 6.975101276138167e-06
0.027987887887887884 7.387915198523008e-06
0.029979879879879878 7.824140338479802e-06
0.03197187187187187 8.285041864921084e-06
0.033963863863863866 8.771949621268294e-06
0.03595585585585585 9.286261221012512e-06
0.03794784784784785 9.82944527991766e-06
0.03993983983983984 1.040304479029212e-05
0.04193183183183183 1.1008680642941804e-05
0.04392382382382382 1.1648055302605141e-05
0.045915815815815816 1.2322956642866899e-05
0.0479078078078078 1.3035261946747082e-05
0.0498997997997998 1.3786942079365393e-05
0.05189179179179179 1.4580065839291441e-05
0.053883783783783785 1.541680449540596e-05
0.05587577577577577 1.6299436516318064e-05
0.05786776776776777 1.7230352499608278e-05
0.05985975975975976 1.8212060308396306e-05
0.06185175175175175 1.924719042297033e-05
0.06384374374374374 2.0338501515451334e-05
0.06583573573573573 2.1488886255714112e-05
0.06782772772772773 2.2701377357036998e-05
0.06981971971971972 2.3979153870207417e-05
0.0718117117117117 2.5325547735070938e-05
0.0738037037037037 2.6744050598779246e-05
0.07579569569569569 2.8238320910263488e-05
0.07778768768768768 2.981219130073251e-05
0.07977967967967968 3.146967626028189e-05
0.08177167167167167 3.321498012098244e-05
0.08376366366366365 3.5052505357107495e-05
0.08575565565565565 3.698686121345652e-05
0.08774764764764764 3.9022872673031745e-05
0.08973963963963963 4.116558977563054e-05
0.09173163163163163 4.342029729922339e-05
0.09372362362362362 4.5792524816304027e-05
0.0957156156156156 4.828805713771763e-05
0.0977076076076076 5.09129451567893e-05
0.09969959959959959 5.367351710690912e-05
0.10169159159159159 5.6576390246052394e-05
0.10368358358358358 5.962848298205495e-05
0.10567557557557557 6.283702745279196e-05
0.10766756756756757 6.62095825757546e-05
0.10965955955955956 6.97540475818594e-05
0.11165155155155154 7.347867604867218e-05
0.11364354354354354 7.739209044857053e-05
0.11563553553553553 8.150329722772554e-05
0.11762752752752752 8.582170243213139e-05
0.11961951951951952 9.035712789726518e-05
0.1216115115115115 9.51198280183086e-05
0.12360350350350349 0.00010012050711822694
0.12559549549549548 0.0001053703374313454
0.12758748748748747 0.0001108809777204229
0.12957947947947945 0.00011666459254557838
0.13157147147147144 0.00012273387220377403
0.13356346346346346 0.00012910205335791113
0.13555545545545544 0.00013578294037494567
0.13754744744744743 0.00014279092739278283
0.13953943943943942 0.00015014102113603426
0.1415314314314314 0.0001578488645010939
0.1435234234234234 0.0001659307609312825
0.1455154154154154 0.00017440369960318962
0.1475074074074074 0.0001832853814456162
0.14949939939939938 0.00019259424601288702
0.15149139139139137 0.00020234949923458298
0.15348338338338335 0.00021257114206405566
0.15547537537537534 0.00022328000004839178
0.15746736736736736 0.00023449775384276698
0.15945935935935934 0.00024624697069242204
0.16145135135135133 0.0002585511369057425
0.16344334334334332 0.00027143469134219506
0.1654353353353353 0.00028492305993909397
0.1674273273273273 0.00029904269130142844
0.1694193193193193 0.00031382109337915666
0.1714113113113113 0.0003292868712566176
0.17340330330330328 0.0003454697660788477
0.17539529529529527 0.0003624006951397743
0.17738728728728725 0.0003801117931574232
0.17937927927927924 0.0003986364547613491
0.18137127127127126 0.00041800937821767463
0.18336326326326324 0.0004382666104171275
0.18535525525525523 0.0004594455931516087
0.18734724724724722 0.00048158521070478254
0.1893392392392392 0.0005047258387822343
0.1913312312312312 0.0005289093948067349
0.1933232232232232 0.0005541793896040627
0.1953152152152152 0.0005805809805047861
0.19730720720720718 0.0006081610258873063
0.19929919919919917 0.0006369681411873419
0.20129119119119115 0.0006670527563987843
0.20328318318318317 0.0006984671750907726
0.20527517517517516 0.0007312656349654963
0.20726716716716714 0.0007655043699809839
0.20925915915915913 0.000801241674062828
0.21125115115115112 0.0008385379664284557
0.2132431431431431 0.0008774558585470897
0.21523513513513512 0.0009180602227581727
0.2172271271271271 0.0009604182625704837
0.2192191191191191 0.001004599584663692
0.22121111111111108 0.0010506762726134487
0.22320310310310307 0.001098722962360531
0.22519509509509505 0.0011488169194438587
0.22718708708708707 0.0012010381180164616
0.22917907907907906 0.0012554693216626468
0.23117107107107104 0.0013121961660338788
0.23316306306306303 0.0013713072433198306
0.23515505505505502 0.00143289418857024
0.237147047047047 0.0014970517678820699
0.23913903903903902 0.0015638779684654606
0.241131031031031 0.0016334740906008437
0.243123023023023 0.0017059448414981871
0.24511501501501498 0.0017813984310683392
0.24710700700700697 0.00185994666961489
0.24909899899899896 0.0019417050674535603
0.25109099099099097 0.002026792936464818
0.25308298298298293 0.0021153334935836068
0.25507497497497494 0.0022074539662287223
0.25706696696696696 0.0023032856996723374
0.2590589589589589 0.002402964266348808
0.26105095095095093 0.0025066295770995624
0.2630429429429429 0.0026144259943494137
0.2650349349349349 0.0027265024472072586
0.2670269269269269 0.002843012548482174
0.2690189189189189 0.0029641147136038183
0.2710109109109109 0.003089972281433714
0.27300290290290286 0.003220753636951553
0.27499489489489487 0.0033566323357984277
0.27698688688688683 0.0034977872306563734
0.27897887887887884 0.003644402599440744
0.28097087087087086 0.0037966682752797014
0.2829628628628628 0.003954779778251984
0.28495485485485483 0.004118938448851496
0.2869468468468468 0.004289351583144102
0.2889388388388388 0.0044662325695792975
0.2909308308308308 0.004649801027416093
0.2929228228228228 0.004840282946719282
0.2949148148148148 0.005037910829879209
0.29690680680680676 0.005242923834604354
0.29889879879879877 0.00545556791833328
0.30089079079079073 0.005676095984008166
0.30288278278278274 0.005904768027149245
0.30487477477477476 0.006141851284165332
0.3068667667667667 0.006387620381832038
0.30885875875875873 0.0066423574878655646
0.3108507507507507 0.006906352462515421
0.3128427427427427 0.00717990301109643
0.3148347347347347 0.0074633148373753145
0.3168267267267267 0.007756901797723511
0.3188187187187187 0.008060986055943653
0.32081071071071066 0.008375898238672701
0.32280270270270267 0.00870197759126044
0.3247946946946947 0.009039572134017465
0.32678668668668664 0.00938903881872267
0.32877867867867866 0.00975074368527539
0.3307706706706706 0.010125062018372667
0.33276266266266263 0.010512378504088088
0.3347546546546546 0.010913087386222884
0.3367466466466466 0.011327592622296608
0.3387386386386386 0.011756308039038427
0.3407306306306306 0.012199657487236795
0.3427226226226226 0.012658074995798846
0.34471461461461456 0.013132004924867461
0.34670660660660657 0.013621902117838073
0.3486985985985986 0.014128232052112506
0.35069059059059055 0.014651470988423029
0.35268258258258256 0.015192106118553423
0.3546745745745745 0.015750635711280506
0.35666656656656653 0.016327569256353196
0.3586585585585585 0.016923427606322722
0.3606505505505505 0.01753874311603121
0.3626425425425425 0.018174059779562234
0.3646345345345345 0.018829933364451396
0.3666265265265265 0.019506931542950717
0.36861851851851846 0.020205634020134644
0.37061051051051047 0.020926632658632836
0.3726025025025025 0.02167053159976832
0.37459449449449445 0.022437947380875713
0.37658648648648646 0.023229509048570834
0.3785784784784784 0.024045858267735642
0.38057047047047043 0.024887649425982424
0.3825624624624624 0.025755549733352125
0.3845544544544544 0.026650239317002028
0.3865464464464464 0.02757241131063048
0.3885384384384384 0.02852277193838471
0.3905304304304304 0.02950204059299372
0.39252242242242236 0.030510949907862496
0.39451441441441437 0.03155024582286445
0.3965064064064064 0.03262068764356134
0.39849839839839835 0.03372304809357957
0.40049039039039036 0.034858113359869054
0.4024823823823823 0.03602668313056434
0.40447437437437433 0.03722957062517204
0.40646636636636635 0.03846760261679784
0.4084583583583583 0.03974161944613227
0.4104503503503503 0.04105247502690682
0.4124423423423423 0.04240103684253259
0.4144343343343343 0.04378818593363327
0.41642632632632626 0.045214816876181035
0.41841831831831827 0.04668183774994418
0.4204103103103103 0.0481901700969552
0.42240230230230225 0.04974074886970684
0.42439429429429426 0.05133452236878351
0.4263862862862862 0.05297245216963805
0.42837827827827824 0.054655513038220346
0.43037027027027025 0.05638469283517006
0.4323622622622622 0.05816099240828345
0.4343542542542542 0.05998542547296722
0.4363462462462462 0.0618590184803953
0.4383382382382382 0.06378281047308483
0.44033023023023016 0.0657578529276122
0.44232222222222217 0.06778520958419314
0.4443142142142142 0.0698659562628514
0.44630620620620615 0.07200118066591062
0.44829819819819816 0.07419198216654027
0.4502901901901901 0.07643947158310015
0.45228218218218214 0.0787447709390249
0.45427417417417415 0.08110901320800092
0.4562661661661661 0.083533342044194
0.4582581581581581 0.08601891149728884
0.4602501501501501 0.08856688571211042
0.4622421421421421 0.09117843861260985
0.4642341341341341 0.09385475356999241
0.4662261261261261 0.09659702305479
0.4682181181181181 0.09940644827267504
0.47021011011011005 0.10228423878382953
0.47220210210210206 0.1052316121056927
0.474194094094094 0.10824979329891646
0.47618608608608604 0.11134001453637325
0.47817807807807805 0.11450351465506954
0.48017007007007 0.11774153869082939
0.482162062062062 0.1210553373956284
0.484154054054054 0.12444616673746399
0.486146046046046 0.12791528738266889
0.488138038038038 0.13146396416058262
0.49013003003003 0.13509346551051205
0.492122022022022 0.1388050629109264
0.49411401401401395 0.14260003029084586
0.49610600600600596 0.14647964342340078
0.4980979979979979 0.1504451793015509
0.50008998998999 0.15449791549597394
0.502081981981982 0.15863912949514547
0.5040739739739739 0.16287009802765498
0.5060659659659659 0.16719209636681207
0.5080579579579579 0.17160639761762556
0.5100499499499499 0.17611427198624388
0.5120419419419419 0.1807169860319783
0.5140339339339339 0.18541580190203696
0.5160259259259259 0.19021197654912098
0.5180179179179178 0.19510676093206283
0.5200099099099098 0.20010139919969103
0.5220019019019019 0.2051971278581388
0.5239938938938938 0.21039517492182933
0.5259858858858858 0.21569675904839533
0.5279778778778779 0.22110308865780504
0.5299698698698698 0.226615361035994
0.5319618618618618 0.23223476142332652
0.5339538538538539 0.23796246208822414
0.5359458458458458 0.2437996213863248
0.5379378378378378 0.24974738280556483
0.5399298298298297 0.2558068739975884
0.5419218218218218 0.2619792057959163
0.5439138138138138 0.2682654712213309
0.5459058058058057 0.27466674447495576
0.5478977977977978 0.2811840799195264
0.5498897897897898 0.2878185110493778
0.5518817817817817 0.29457104944969853
0.5538737737737737 0.30144268374561534
0.5558657657657657 0.3084343785417025
0.5578577577577577 0.31554707335253124
0.5598497497497497 0.32278168152490005
0.5618417417417417 0.3301390891523989
0.5638337337337337 0.33762015398299433
0.5658257257257256 0.34522570432034416
0.5678177177177176 0.3529565379195576
0.5698097097097097 0.3608134208781605
0.5718017017017016 0.3687970865230254
0.5737936936936936 0.3769082342940666
0.5757856856856857 0.3851475286255037
0.5777776776776776 0.39351559782552514
0.5797696696696696 0.4020130329552118
0.5817616616616617 0.4106403867075812
0.5837536536536536 0.4193981722876429
0.5857456456456456 0.428286862294383
0.5877376376376375 0.43730688760558983
0.5897296296296296 0.4464586362664722
0.5917216216216216 0.4557424523830238
0.5937136136136135 0.4651586350211178
0.5957056056056056 0.47470743711231184
0.5976975975975976 0.4843890643673704
0.5996895895895895 0.49420367419853306
0.6016815815815815 0.5041513746515451
0.6036735735735735 0.5142322233485034
0.6056655655655655 0.5244462264425688
0.6076575575575575 0.5347933375856159
0.6096495495495495 0.5452734569098856
0.6116415415415415 0.5558864300247264
0.6136335335335334 0.5666320470295251
0.6156255255255255 0.5775100415439065
0.6176175175175175 0.588520089756318
0.6196095095095094 0.5996618094921025
0.6216015015015014 0.610934759302169
0.6235934934934935 0.6223384375733706
0.6255854854854854 0.6338722816617123
0.6275774774774774 0.6455356670494932
0.6295694694694695 0.6573279065275037
0.6315614614614614 0.6692482494033759
0.6335534534534534 0.6812958807372116
0.6355454454454453 0.6934699206055723
0.6375374374374374 0.7057694233949383
0.6395294294294294 0.718193377125714
0.6415214214214213 0.7307407028078786
0.6435134134134134 0.7434102538293282
0.6455054054054054 0.7562008153779811
0.6474973973973973 0.7691111038986962
0.6494893893893894 0.7821397665860247
0.6514813813813813 0.7952853809138166
0.6534733733733733 0.8085464542026931
0.6554653653653653 0.821921423226347
0.6574573573573573 0.8354086538576543
0.6594493493493493 0.8490064407555241
0.6614413413413412 0.8627130070934237
0.6634333333333333 0.8765265043304614
0.6654253253253253 0.8904450120259076
0.6674173173173172 0.9044665376980058
0.6694093093093092 0.9185890167278861
0.6714013013013013 0.9328103123093767
0.6733932932932932 0.9471282154454741
0.6753852852852852 0.9615404449922119
0.6773772772772773 0.9760446477506095
0.6793692692692692 0.9906383986073831
0.6813612612612612 1.0053192007250458
0.6833532532532531 1.0200844857819824
0.6853452452452452 1.0349316142630725
0.6873372372372372 1.0498578758013641
0.6893292292292291 1.0648604895712979
0.6913212212212212 1.0799366047339047
0.6933132132132132 1.0950833009343808
0.6953052052052051 1.1102975888524087
0.6972971971971972 1.1255764108055153
0.6992891891891891 1.1409166414057497
0.7012811811811811 1.1563150882699067
0.7032731731731731 1.171768492783461
0.7052651651651651 1.1872735309183517
0.7072571571571571 1.2028268141046923
0.709249149149149 1.218424890156452
0.7112411411411411 1.2340642442510805
0.7132331331331331 1.2497412999630115
0.715225125125125 1.2654524203509456
0.717217117117117 1.281193909098727
0.7192091091091091 1.2969620117096037
0.721201101101101 1.3127529167536063
0.723193093093093 1.328562757167721
0.7251850850850851 1.3443876116084783
0.727177077077077 1.3602235058565302
0.729169069069069 1.3760664142727534
0.731161061061061 1.3919122613053196
0.733153053053053 1.4077569230471618
0.735145045045045 1.4235962288432034
0.7371370370370369 1.4394259629466424
0.739129029029029 1.455241866223555
0.741121021021021 1.4710396379050181
0.7431130130130129 1.486814937385908
0.745105005005005 1.5025633860694565
0.7470969969969969 1.5182805692566232
0.7490889889889889 1.5339620380792762
0.7510809809809809 1.5496033114761176
0.7530729729729729 1.5651998782102563
0.7550649649649649 1.5807471989272561
0.7570569569569569 1.5962407082524765
0.7590489489489489 1.611675816926427
0.7610409409409409 1.627047913976845
0.7630329329329328 1.6423523689261574
0.7650249249249248 1.6575845340329123
0.7670169169169169 1.6727397465657583
0.7690089089089088 1.6878133311084824
0.7710009009009008 1.7028006018945867
0.7729928928928929 1.7176968651698352
0.7749848848848848 1.73249742158116
0.7769768768768768 1.7471975685903016
0.7789688688688688 1.761792602910481
0.7809608608608608 1.7762778229643938
0.7829528528528528 1.7906485313617926
0.7849448448448447 1.8049000373948416
0.7869368368368368 1.81902765954946
0.7889288288288288 1.8330267280307861
0.7909208208208207 1.846892587300912
0.7929128128128128 1.8606205986269735
0.7949048048048047 1.8742061426376766
0.7968967967967967 1.8876446218863283
0.7988887887887887 1.9009314634183914
0.8008807807807807 1.9140621213415876
0.8028727727727727 1.9270320793965443
0.8048647647647647 1.9398368535259793
0.8068567567567567 1.9524719944403834
0.8088487487487487 1.9649330901781672
0.8108407407407406 1.9772157686582348
0.8128327327327327 1.989315700222912
0.8148247247247247 2.001228600169187
0.8168167167167166 2.0129502312661987
0.8188087087087086 2.0244764062569063
0.8208007007007007 2.0358029903418924
0.8227926926926926 2.0469259036432343
0.8247846846846846 2.057841123646409
0.8267766766766766 2.0685446876181763
0.8287686686686686 2.079032694998424
0.8307606606606606 2.0893013097639583
0.8327526526526525 2.0993467627622318
0.8347446446446446 2.1091653540130286
0.8367366366366366 2.11875345497615
0.8387286286286285 2.128107510783147
0.8407206206206206 2.1372240424311877
0.8427126126126125 2.1460996489371644
0.8447046046046045 2.1547310094501784
0.8466965965965966 2.163114885320561
0.8486885885885885 2.1712481221236337
0.8506805805805805 2.1791276516364393
0.8526725725725725 2.1867504937657007
0.8546645645645645 2.194113758425332
0.8566565565565565 2.201214647361818
0.8586485485485484 2.2080504559258842
0.8606405405405405 2.2146185747888536
0.8626325325325325 2.2209164916021864
0.8646245245245244 2.226941792598727
0.8666165165165164 2.2326921641342117
0.8686085085085085 2.238165394167678
0.8706005005005004 2.243359373679438
0.8725924924924924 2.2482720980253523
0.8745844844844844 2.2529016682261793
0.8765764764764764 2.257246292190842
0.8785684684684684 2.261304285872511
0.8805604604604603 2.265074074356457
0.8825524524524524 2.2685541928786925
0.8845444444444444 2.2717432877744743
0.8865364364364363 2.2746401173558155
0.8885284284284284 2.2772435527172
0.8905204204204203 2.2795525784687793
0.8925124124124123 2.281566293396378
0.8945044044044044 2.2832839110477052
0.8964963963963963 2.284704760244243
0.8984883883883883 2.2858282855183485
0.9004803803803803 2.2866540474751584
0.9024723723723723 2.287181723078982
0.9044643643643643 2.287411105863908
0.9064563563563562 2.287342106068439
0.9084483483483483 2.286974750694034
0.9104403403403403 2.286309183487495
0.9124323323323322 2.2853456648472275
0.9144243243243242 2.284084571653446
0.9164163163163163 2.2825263970224916
0.9184083083083082 2.280671749985481
0.9204003003003002 2.278521355091578
0.9223922922922922 2.2760760519362506
0.9243842842842842 2.2733367946149494
0.9263762762762762 2.2703046511026934
0.9283682682682682 2.2669808025601403
0.9303602602602602 2.2633665425667644
0.9323522522522522 2.2594632762818403
0.9343442442442441 2.255272519533998
0.9363362362362362 2.2507958978401716
0.9383282282282281 2.24603514535483
0.9403202202202201 2.240992103750444
0.9423122122122122 2.235668721030198
0.9443042042042041 2.2300670502740223
0.9462961961961961 2.2241892483190653
0.948288188188188 2.2180375743758125
0.9502801801801801 2.2116143885810704
0.9522721721721721 2.2049221504891356
0.954264164164164 2.1979634175024803
0.9562561561561561 2.1907408432433706
0.9582481481481481 2.1832571758678636
0.96024014014014 2.175515256323671
0.9622321321321321 2.167518016553459
0.9642241241241241 2.1592684776451505
0.966216116116116 2.1507697479308785
0.968208108108108 2.1420250210362553
0.9702001001001 2.1330375738816745
0.972192092092092 2.1238107646374003
0.974184084084084 2.114348030634212
0.976176076076076 2.104652886231447
0.978168068068068 2.0947289206442665
0.98016006006006 2.084579795732044
0.9821520520520519 2.0742092437497592
0.984144044044044 2.0636210650643516
0.986136036036036 2.052819125837969
0.9881280280280279 2.0418073556800853
0.99012002002002 2.0305897452704893
0.9921120120120119 2.0191703439551465
0.9941040040040039 2.0075532573169514
0.9960959959959959 1.9957426447234086
0.9980879879879879 1.9837427168532913
1.00007997997998 1.9715577332043195
1.002071971971972 1.9591919995839173
1.004063963963964 1.9466498655851074
